-0.0451167648545152
-0.0778335611822291
-0.104641035973571
-0.0971686487609979
-0.0774262887150403
-0.0592483563220653
-0.0225883558528227
-0.0114140888764728
-0.0111668905304378
-0.006125787554791
-0.00210350152184076
0.00396435067257553
0.0082533939293629
0.00882312327608353
-0.000954421033982578
-0.0267459446633298
-0.0428086860403012
-0.0388321276324701
-0.0149143188798685
0.00636696323936485
0.00407223107219425
0.00327521915122695
-5.02530125828905e-05
-0.0062860209313627
0.00792580716022161
0.0134155657395223
0.0127279910765846
0.00205518016770373
-0.00436616588192144
-0.0123609168140782
-0.0143127848934861
-0.0230806061437763
-0.0336879579759969
-0.0243577212475499
-0.0172091489756535
-0.0193331013722368
-0.020380893975205
-0.0160327207899968
-0.00604193600773485
-0.00691657755391574
0.0135622272250687
0.0425493239341745
0.0622421481395808
0.0562801100304261
0.0556981212269232
0.0370695115230177
-0.0185559951929929
-0.0601088362421907
-0.0731507153101754
-0.0591393393952948
-0.00206085932717023
0.0256101984907573
0.0292603106212858
0.0235085932336092
0.0139056387449088
0.00904002984428562
0.020986568283217
0.0778400526310703
0.140256980393169
0.167834636911588
0.169417480463658
0.127194177833134
0.061809003338181
0.0172924959363115
-0.00163713792812014
-0.0166609258391721
0.00157497663579088
0.0125647917043869
0.0280414689638435
0.0234501280460917
0.0378239633320206
0.0327142015932315
0.0207396063554352
0.0361714257156899
0.0683131497161026
0.158152153554143
0.320444104264691
0.301198998274494
-0.0964133529489894
-0.660582410669596
-1.07514793938096
-1.17167209587654
-0.885476375379856
-0.276093603227051
0.302449982914073
0.581666683186791
0.508624530726569
0.26097459789041
0.0839268568117823
0.0817714734427175
0.162001008705057
0.211736421068719
0.224943932488621
0.20006866674046
0.181356981226075
0.154355381029087
0.106144201305401
0.0818924920455089
0.0648128896296345
0.0682246942905992
0.0487508764561597
0.0248333385101105
0.00177914521616734
-0.0308706402032007
-0.0511386661376272
-0.0623469845614275
-0.0242813470125324
0.0989862985272452
0.302902515111296
0.542148707621944
0.782899700418541
0.914072841928506
0.802248050549582
0.396360606038796
-0.212203202748493
-0.878361493592039
-1.39403509165729
-1.70241244386472
-1.92548565599257
-1.81671188096546
-1.38372243146188
-0.852286353525543
-0.282230327776199
0.235110534829194
0.572837421201764
0.647953401888474
0.585360124648637
0.500773584434657
0.485105098371917
0.486869996582948
0.493518061568663
0.47066148746274
0.42528808581161
0.364158290792631
0.305020943246184
0.251546946807111
0.199106515698858
0.169729966901076
0.170153182956821
0.172656382048513
0.133867084439791
0.142951552929915
0.152784047879709
0.13073659726105
0.125415843949108
0.12510404533488
0.103773884991282
0.0684617969432005
0.0468798276380309
0.0187730835912376
0.0182440534368213
0.0350384416661343
0.0526741507116019
0.0544547376818203
0.034110811974895
0.00270656517718604
-0.00432720348693356
-0.00218691727744069
-0.0156806022624668
-0.0201964912300043
-0.0370782204668255
-0.0378550996331059
-0.0596642881396742
-0.0880935563340845
-0.0996982837092526
-0.0940927731064075
-0.0509621651336851
-0.0206555862857142
0.00430691715018856
0.000711056974434195
-0.0246622107835984
-0.0518838344785909
-0.0843434446625071
-0.113157485466996
-0.162140346476623
-0.179895812269306
-0.216620826040705
-0.251641862572976
-0.280880033151943
-0.26765137875597
-0.240143986760558
-0.187402725699607
-0.0796631979936554
0.0510626816297017
0.163581729844967
0.0310266186836043
-0.498170824134839
-1.07870870265201
-1.39908328143103
-1.35422793982978
-0.884161522671039
-0.140581298304567
0.512216491914298
0.839730550914847
0.80192535072902
0.623788745144826
0.495971473980368
0.482865279003661
0.489810694720038
0.475301543083968
0.427115690014649
0.382312903792977
0.368190946026553
0.34365773864154
0.345357662695089
0.282747629201539
0.199430149273399
0.130275283268319
0.0903889877647459
0.115676599273746
0.129737373321616
0.137901936366986
0.122248552423945
0.0741546233398477
-0.0146125366591166
-0.0758133243608364
-0.10567878557583
-0.113792368919474
-0.115945775019318
-0.105416221862313
-0.0968336863094464
-0.0722836556835653
-0.0568615453493539
-0.0744400344883686
-0.07875424588426
-0.0848620437033668
-0.0745232320246762
-0.0886516820672652
-0.06754814418682
-0.0643276236976178
-0.0851160642438847
-0.111211151554164
-0.10908736276178
-0.0802308462688627
-0.0385718665990116
0.00995050768871033
0.0240868128846934
0.020139496711048
0.0107805944904338
-0.0166919981349758
-0.0203908485175809
-0.0199774409545041
-0.0374461164231499
-0.0615254054824074
-0.0661771776889463
-0.0616609997982318
-0.0595433648670074
-0.0455978935379311
-0.0389308760782416
-0.0282944269559688
-0.0081682526214184
-0.0580288939796596
-0.0578244562871049
-0.0124603868271699
-0.00256255944776465
-0.00448144504535662
0.0154033637603641
-0.0058483840427836
-0.0293378487183762
-0.0197088304268796
-0.0138832721849664
0.00739833468012888
-0.0060511917566844
-0.0444315848356267
-0.0351119894307539
-0.006307659583991
0.0304751298226351
0.0330917662354414
-0.00519175534890828
-0.049736278862808
-0.0747662468673694
-0.0838969109685412
-0.0504180687582453
-0.0120844705371905
0.0119386446247187
0.0317301769791668
0.030281381949254
0.0179688114800857
0.00297313549157316
0.0339869453875389
0.0682491546897034
0.0886158860007124
0.0919168709291352
0.0846729396483991
0.0846005121864993
0.0870070021050763
0.0838870895059015
0.0947632385754755
0.0953675629794937
0.07164368210292
0.0804268637453661
0.152103358176976
0.300562042781072
0.362611006219737
0.0406956607211459
-0.532319980887062
-0.980964936096209
-1.11438784429612
-0.899313974974917
-0.344421791226685
0.30870737408403
0.721226803340258
0.739966445593989
0.528616617094312
0.312366738024878
0.208719651047268
0.177487159970336
0.150922157370546
0.138164400400885
0.157883480576933
0.15167654929498
0.142357809090049
0.138493545829988
0.111308226164433
0.0771722225062675
0.0547468023619113
0.0750655301851352
0.101869160414424
0.0982075139216354
0.0794554746499078
0.0177523265839678
-0.0390384238843957
-0.126142812137093
-0.228848617404246
-0.270423384666082
-0.278899405548218
-0.282546785624057
-0.24767701321445
-0.205002869637712
-0.177568922404576
-0.132289848225669
-0.0900675800362223
-0.0633766608294657
-0.0428973222633948
-0.0451081216823569
-0.0600651883302804
-0.0637933301052884
-0.0524580040213621
-0.0167417882036267
-0.0332644124392336
-0.0620076558146482
-0.0655634702712631
-0.0317691113305716
-0.018877547025998
-0.00292492749603073
0.0609033428477379
0.187084279283412
0.403160965140466
0.67566865556343
0.944804951555417
1.04894538903859
0.794377222534993
0.254085988127703
-0.426855335539449
-1.12493529589967
-1.59887334196601
-1.93721148351087
-1.95947818919193
-1.55694978012143
-0.986777054829975
-0.367818306272546
0.247537220111888
0.689242670254096
0.839633473152496
0.747884655819608
0.605590184607844
0.542107776556439
0.525795032657018
0.522907483900906
0.508921238124627
0.459617364774774
0.365787529003212
0.294528519549407
0.253686158067303
0.217021211792396
0.191872590641875
0.166719479688154
0.141142318530721
0.137137462816805
0.139257429957862
0.130381136825485
0.128466436335482
0.116744163396033
0.11235000891443
0.121665153951773
0.11316330883913
0.111581876511941
0.0919177409714653
0.0634076411671373
0.0643242537393543
0.0478144054787653
0.0236823361980486
0.0192935410857892
0.027465760918216
0.0269382583420049
0.0330789010866187
0.0250159393502161
-0.00238223125417186
-0.0106771871170184
0.0249030999355637
0.114412554691328
0.229021842554514
0.0188139571303424
-0.517519288473183
-1.00314076011272
-1.21197293907533
-1.08912411313584
-0.596967708811211
0.0551888820457677
0.521222429998811
0.600913380013999
0.38901860509964
0.141682255891516
0.00646792919634481
-0.0178094166988869
-0.0306580419822344
-0.0738371431256855
-0.137554967701772
-0.197389361079991
-0.239773199292769
-0.283659668996196
-0.318720210464549
-0.366736616696762
-0.396840036854144
-0.386979151303496
-0.348349405690328
-0.283936293846876
-0.216691130856226
-0.132134365524631
-0.0860670974826902
-0.0328292987025955
0.0243785519847165
0.0699287418161896
0.123622956662766
0.176924387670923
0.251884593699512
0.316690604316804
0.340077164045706
0.348898976550663
0.340981505001163
0.339286827414357
0.334993268560385
0.321237088093505
0.300152459518131
0.27003749842068
0.236807647475234
0.194730547137141
0.143340036986193
0.108754712654053
0.0868998407044105
0.0917443424682888
0.109725717652687
0.143191119500852
0.148918280648649
0.11268819858954
0.0792041266726658
0.0281210781443697
0.00140595632786905
-0.0143601272757458
-0.0112117670084558
-0.0294372169176622
-0.020166571426226
-0.000135079520854165
-0.00633740817440356
-0.0316749926914082
-0.0350580476028009
-0.0419715760220037
-0.0518116538876788
-0.0555392684561714
-0.072341886342426
-0.0907935987919603
-0.0983847789374871
-0.107765679112278
-0.102251741807292
-0.10210126798843
-0.11301901812722
-0.105738892993333
-0.107381448186154
-0.100490173484775
-0.114553097077283
-0.125314550779603
-0.126075819714092
-0.127746221417353
-0.104948961957321
-0.0794544756900163
-0.0674160624238537
-0.0685992329580997
-0.0630954902007935
-0.0624371291604579
-0.0591538721020363
-0.0541551791210749
-0.0326167737645744
0.002751643704246
0.0411939534577931
0.0604804778802329
0.0661059651769781
0.0490231971279495
0.0529609050294148
0.0601237437156425
0.0721315558971478
0.0785400808702277
0.107495201250253
0.110249023174572
0.101129749997235
0.0820975932739292
0.0739150162727117
0.0650558112778089
0.0894421424892394
0.162142672298341
0.29584350304362
0.372644396126119
0.158094245788226
-0.406478028026855
-0.96871531178527
-1.23996465893513
-1.1696750729015
-0.697328920235539
-0.0123435074433009
0.521887991116375
0.677055234867856
0.550257836966911
0.344042592344788
0.219213498663534
0.179492980300911
0.165996394423582
0.146453137723268
0.101169060359389
0.0742567644316481
0.0858278653696564
0.102639973981837
0.106616700984034
0.084206325498388
0.0565261049954036
0.0442732524982128
0.0374172034650345
0.0341216310871372
0.0349814773082817
0.0299039088974028
0.0088161976742868
0.00886117931547289
0.0129669382788256
0.021455200244591
0.00887177605097562
-0.00450147793901146
-0.0204468845780811
-0.039272346093836
-0.0463252692093285
-0.0585383599638116
-0.0566358352910845
-0.0724321396605232
-0.0619988654873893
-0.0612778072334404
-0.0652939408783185
-0.0700899408044657
-0.0785768054096168
-0.0461456086639638
-0.0153367353793884
-0.00340782100393276
0.0160444681099441
0.0225368672710152
0.0387769137407314
0.0460007555264927
0.0595232485684946
0.0725558948531422
0.0871945367813976
0.0711427272276551
0.0626368530045373
0.0312905881867548
-0.0299053402300602
-0.0839691900069612
-0.12381555898366
-0.13315332076309
-0.125442305829748
-0.0858319277675859
-0.0399755135332431
-0.0125191164893057
0.0227645182974727
0.0388568844078249
0.0501489381556719
0.058007952093574
0.0614587066725749
0.0578828299158496
0.0825976900186922
0.110295990235542
0.118689508392969
0.11390718068384
0.0865630715590712
0.0505851864927222
0.05628382012855
0.034686364393561
0.0450043743362838
0.108556489440626
0.278545735895959
0.475239127351465
0.698565130254165
0.876352079622223
0.840532464272627
0.521657235952714
-0.0137203556407758
-0.706113991675359
-1.36698375889267
-1.80738828613094
-2.0349190645633
-1.80844800766415
-1.26475343966574
-0.650930672529194
-0.0685983971247168
0.411992110097479
0.660765002333449
0.677821029784903
0.583131029384743
0.487030878250395
0.417607329874897
0.38171572339421
0.360891713582703
0.320403822155257
0.278681313895829
0.253706683933592
0.277306321011734
0.354869647473575
0.483700295852034
0.4656141110405
0.0511500761284331
-0.560948915053193
-1.00319718672901
-1.11704012950673
-0.774810550307153
-0.145612714906822
0.453073651032203
0.772871296636196
0.713753610658806
0.454378098951493
0.266961725957163
0.223095351935249
0.244370342719623
0.23177714703454
0.187764326252446
0.137007822475487
0.121916352492502
0.142183795169853
0.15333297063158
0.133039700565931
0.0747419189967756
0.0353917021929489
0.0167513742290836
0.0053043773891673
0.00148813415202946
-0.0105529449957692
-0.0125954841853214
-0.0244666383403787
-0.0203760414842939
-0.0160364537027808
-0.02004737372273
-0.0451616363435656
-0.0805241711883464
-0.0917602829917287
-0.110137590141473
-0.136389347913333
-0.183449189684271
-0.226521037130874
-0.261918259004141
-0.287906080365217
-0.320729182378797
-0.336150121343308
-0.326129517262179
-0.315967977350945
-0.304449403538979
-0.29074343359812
-0.297025021021315
-0.301614366293044
-0.29260044398312
-0.258918134101777
-0.228655696140779
-0.194916469694334
-0.130345213175918
-0.0695977070029499
0.0164726160474952
0.116747335865739
0.198744115547038
0.264199196522797
0.316156909181379
0.331928061963685
0.326105592993299
0.326436547669687
0.324434967770068
0.32167668707203
0.298065524736088
0.269981545105776
0.249558696340046
0.218184767375924
0.176377203838403
0.151413039052764
0.14686207168491
0.135939389404641
0.113696295425388
0.0860889260636523
0.0754140959992073
0.0631655122922903
0.0388562177702984
0.0171660239869994
-0.00292471209683662
-0.0145626267230591
-0.0112472579007893
-0.00394334264798601
-0.00173376589101924
-0.0149455680920257
-0.0577099322656503
-0.0850591024947323
-0.1152194284892
-0.120326989959463
-0.132777393404598
-0.114766582343546
-0.0584817179968885
-0.0202180701914343
0.0135926749225813
0.024277233366287
0.0119991161602818
-0.00874096635423525
-0.0166524283423856
-0.0362157981048845
-0.0470621887238621
-0.0666944671224626
-0.0725636332616735
-0.0741889101463306
-0.0559246013245978
-0.0425369027959722
-0.0306270505850851
0.000833568914472921
0.0740603899179642
0.213871167720772
0.36566338078614
0.295437290687241
-0.177247653163762
-0.762461809331796
-1.12634707537219
-1.17159286859678
-0.805238013398819
-0.134481519075539
0.438235651078804
0.660469313959743
0.556121788440781
0.328647546840836
0.159984982142763
0.112680356105286
0.135419628905015
0.131288976701969
0.11143820997906
0.0650330224632401
0.0459208572274058
0.0451325315228116
0.0344349561481964
0.0235249701451256
0.0305709759049484
0.0330104321429689
0.0237432891130156
0.0206176918952362
0.0113447552709764
-0.00496793094513646
-0.0185074772037666
-0.0211273636904545
-0.0235875819548064
-0.00962368426733723
-0.0101286231870414
-0.00911024555497931
-0.0043902101328363
0.0153977411873939
0.0221340431286119
0.00706308913391502
0.000697795057981795
0.012001358700486
0.0236441800812475
0.0301612607716413
0.0385989673330818
0.0328846525111027
0.0210470797791199
0.00920664240748212
0.0150244589141178
0.023488665308836
0.0188953735935718
0.0227025422544142
0.0326217469500533
0.037309542977788
0.0307621728268186
0.0506615324875451
0.0628883529715683
0.0784101837804782
0.058620549357387
0.0299741285784293
0.00611438136582192
-0.0119954367146969
-0.0129164275771644
-0.0189194007671972
0.00620922778842326
-0.00129989313266144
-0.010551338341624
-0.0128453862843185
-0.00566578654301458
0.00458751201570959
-0.00860464568805537
-0.0398649351339255
-0.073851210991427
-0.0989503851141633
-0.111731923391337
-0.100278934187151
-0.0619861761592898
-0.0358844673394066
-0.0240805891547714
-0.014550310495883
-0.00924729275342717
-0.00791375980120021
-0.0203632192497973
-0.017841880712364
0.0143669772293131
0.0206251497173876
0.0304152990489333
0.0103310710515904
-0.0260046459168138
-0.0707187710692469
-0.101969131684482
-0.12187076500299
-0.14964814331984
-0.117335917952357
-0.055534487308521
-0.0182892869670223
0.0234171044312775
0.0498793461710896
0.0743841600906695
0.112684613255006
0.141937217614003
0.161515912686922
0.158605968989367
0.160842247257801
0.175671145982896
0.18099117626019
0.185189630598431
0.191716418194946
0.172170008186295
0.141099941355423
0.183132988835157
0.286701308083837
0.40136403553276
0.291923110051709
-0.181936690042844
-0.690428972462424
-0.877719584592075
-0.684854054096691
-0.0829362985833914
0.69405000139138
1.16042999183376
1.00358847207183
0.274579707938015
-0.700551273628641
-1.4035695095328
-1.81627715338734
-1.84431311984031
-1.43491573290439
-0.859674383720277
-0.28054931265823
0.24383027413742
0.581011365630943
0.693967741699262
0.629836050629043
0.522735435228013
0.442991163621297
0.405857102420479
0.374424222494146
0.327028047650592
0.265802338864224
0.223306383775363
0.200877449719675
0.192041281307504
0.175876405187272
0.145585603702885
0.118756478060303
0.0950976637859449
0.10131899701603
0.100811058940172
0.123968778550257
0.112232433701043
0.0879431995321564
0.0627000307305395
0.0542522532128299
0.0553246017281071
0.0590773774013927
0.0727805219804409
0.107108898755189
0.112650626604101
0.114059484802222
0.103135972811548
0.0859669371763085
0.0724973678954786
0.0615295283054395
0.024659543509824
-0.00769252108354307
-0.0175950369120382
-0.0251079873124254
-0.0304737574792991
-0.0212654050879495
-0.0374020511908953
-0.0624037355274692
-0.0645604960555939
-0.0495715837836546
-0.0479436884340944
-0.0398330164292464
-0.0343098220132388
-0.0540548353636081
-0.0712980420104715
-0.0699131455733562
-0.0606351909761687
-0.0704776839955652
-0.0920992423910234
-0.111492923473595
-0.126005184130985
-0.130743842745455
-0.155860399098908
-0.186501653631663
-0.2078000408914
-0.245843828592554
-0.295371551780367
-0.327690752695279
-0.328871704463432
-0.32918120122944
-0.313860869119709
-0.295017003642755
-0.280989461162531
-0.275139076867103
-0.268445637706855
-0.223826813637832
-0.158990700472541
-0.0910903567021934
-0.00108714426466458
0.0737068576400954
0.156104101934916
0.228043821186304
0.265319099143776
0.265100593556261
0.256132296565318
0.268837947686229
0.294515967158385
0.324644847188605
0.348284986063521
0.363182717126387
0.352278439623699
0.338885056186637
0.32332464014212
0.295811140789283
0.289145412653771
0.277762666148914
0.293572887073184
0.369762298875575
0.489448673495501
0.362186566677369
-0.144999376218113
-0.695103020407774
-1.03023737212027
-1.05366286985728
-0.682695701318721
-0.0454762549730053
0.501509722240286
0.692471931346974
0.541940889192511
0.274795026419974
0.0801467455762589
0.0308485284569564
0.0313290254477573
0.0430169350524371
0.0452353775465178
0.0189457830961363
-0.000898386726884999
-0.0159687756077262
-0.0479022986853913
-0.0665198382132625
-0.0842455860431442
-0.105307153441265
-0.112481362459659
-0.120510020209479
-0.129324295618222
-0.146822636297115
-0.137212742681719
-0.129521675432786
-0.121210229292964
-0.0982129342395122
-0.0918792202899945
-0.082683346560479
-0.0746321353461693
-0.0585881738483121
-0.0503629939472893
-0.0506635421540695
-0.0559770612796485
-0.0560439131810142
-0.0633684406514736
-0.0395460929402736
